Time (s),X-Axis (m/s2),Y- Axis (m/s2),Z-Axis (m/s2)
0.0,0.05105723204536644,-0.01472644119587585,-0.05217815573073281,
0.002,0.03126898219047711,-0.013696512453770904,-0.04557324357872794,
0.004,0.013523016849030844,-0.010957209963016634,-0.03262787586884208,
0.006,0.001241604072944158,-0.0068504084733431725,-0.012694402745855982,
0.007999966,0.0029086427554256417,-0.0016496077845338242,0.0013366347857370897,
0.009999066,0.004242279661875306,0.0025110327665136545,0.010645723844215027,
0.011997899,0.005309183226570549,0.005839545207351637,0.016178017063653627,
0.013996999,0.006162706078326752,0.006586995662951622,0.018688873611861112,
0.015996965,0.004930164862661401,0.007184956027431522,0.011120379895348975,
0.017996931,0.002028772393058806,0.007663324319015619,-6.808750387996554E-4,
0.019996897,-0.009869150988903785,0.006130659455212406,-0.021613273029087665,
0.021996863,-0.028964293140289907,0.002989168067099701,-0.04793637037639442,
0.023996863,-0.04424041282186328,0.002391334453679672,-0.07091058922103777,
0.025996896,-0.06029202756126259,0.0038284270600139614,-0.08737422332995592,
0.027996929,-0.07121795985571172,0.004978101145081126,-0.09671441162294947,
0.029997862,-0.07804333427327179,0.005897840413135569,-0.10035584326320368,
0.031997895,-0.0777575553161089,0.006633631827579034,-0.09752329155392125,
0.033997928,-0.06795214658595597,0.007222264959133362,-0.08184935223727763,
0.035997961,-0.0562770767658351,0.007693171464377091,-0.05781804380154121,
0.037997994,-0.04310630191559775,0.008069896668572163,-0.03476227805881038,
0.039997994,-0.02873893919940934,0.00645591733485773,-0.010571205503689285,
0.04199796,-0.01724507286831653,0.005164733867886184,0.006865911573610717,
0.043997926,-0.00804997980344227,0.004131787094308947,0.01698488624131045,
0.045997892,-0.0026092529276842413,0.0013900701783766678,0.023165087948125773,
0.047997858,0.005574035646133874,-0.0046340223485095144,0.014701351364360349,
0.049996958,0.010205318929046997,-0.0075379368729482366,0.009845340124691404,
0.051996058,0.011994974137378211,-0.009861068492499125,0.005961294072410084,
0.053995158,0.013426698304043194,-0.011719573788139925,0.0028532942911319026,
0.055994258,0.014572089558304135,-0.01129101852758252,3.6765740556177207E-4,
0.057994224,0.02314984054999414,-0.010948174319136417,0.004124844918589332,
0.059994257,0.03192740084041645,-0.008758539455309133,0.01096131392315236,
0.06199429,0.040864808569824634,-0.00892219106131753,0.02217618614828787,
0.063994323,0.051845453747491776,-0.0071377528490539355,0.040725262883473334,
0.065994356,0.05871462231348412,-0.005710202279243237,0.05364954624427831,
0.067994389,0.06037922625120845,-0.0064835213204648134,0.06973466995440702,
0.069995289,0.0617109094013879,-0.009017536050512476,0.08068702795571348,
0.071996189,0.05894553692739084,-0.007214028840409892,0.08753393632941453,
0.073997055,0.04907178903898299,-0.005771223072327913,0.08726576600689029,
0.075997055,0.0392574312311864,-0.004616978457862242,0.0793890288211383,
0.077997055,0.027575220030344016,-0.005608942263360284,0.06542696402370751,
0.079997055,0.01822945703013458,-0.0064025133077585394,0.048510852224826095,
0.081997055,0.008837481172432243,-0.008952729640347101,0.031147243791579626,
0.083997055,0.001323900486270388,-0.009077543209348171,0.015340616078185931,
0.085997021,-0.004686964062659102,-0.007262034567478537,-0.0011346421472175905,
0.087996987,-0.020987824605153527,-6.354916277162559E-5,-0.008569151706055322,
0.089996087,-0.03211315354207876,0.0037798796639232357,-0.010686040358985238,
0.091995187,-0.039098051234084163,0.004939263228209256,-0.01046457325398542,
0.093994287,-0.04085525039354786,0.005866770079637984,-0.010286636630532087,
0.095993353,-0.040345638303119546,0.006608775560780877,-0.010145050271223255,
0.097993319,-0.03993796055170584,0.007202379945694837,-0.008116040216979314,
0.099993285,-0.0415271778476452,0.0038465444594857345,-0.004577091206787287,
0.101993285,-0.04279853976346773,0.0011618760705185416,-0.005577413932225994,
0.103993318,-0.04190028171998439,-9.858586406554792E-4,-0.006376909173123835,
0.105993351,-0.043097034782268034,0.001126672584546018,-0.008932246332639338,
0.107993384,-0.044054437232094956,-0.0010140214294338534,-0.012892257027049325,
0.109994284,-0.0409896282768869,-8.112171435472604E-4,-0.016059502643123835,
0.111995184,-0.03662242161565016,0.001266385782232593,-0.018594062075436568,
0.113996084,-0.029297937292520115,0.002928468122856298,-0.02253668764863015,
0.115997017,-0.01960763083987549,4.274150012149036E-4,-0.02377504714038814,
0.117997083,-0.011855385677759761,-0.0015734274960985672,-0.019020037712310867,
0.119997049,-0.005653577627138223,-0.0012587419968790314,-0.011385311175708068,
0.121997015,-6.921431075699591E-4,-0.002922353094573449,-0.00527752994642583,
0.123996981,0.005192364005154965,-0.006168601469799473,0.005354392058483981,
0.125996947,0.011815341113334182,-0.008765600169979848,0.01960638962335004,
0.127996913,0.01711372279987755,-0.010843199130124326,0.03292372864203941,
0.129996879,0.02135241622818329,-0.010589918801169773,0.03974611792339644,
0.131996845,0.024743382891756843,-0.010387294538006131,0.045204792287934836,
0.133996845,0.029371515719685992,-0.010225195127475217,0.04957096884011314,
0.135996878,0.033074010061100334,-0.010095515599050753,0.0511489320545131,
0.137996911,0.03795137695223108,-0.01190713147338096,0.05049632459868825,
0.139996944,0.04185327046513568,-0.015271783669915884,0.04805849766723114,
0.141996977,0.04497478527545937,-0.017963505427143645,0.04610823612206616,
0.14399701,0.04747199712371833,-0.018201523335855452,0.03880156692499703,
0.145997043,0.047554407105255186,-0.018391937662824986,0.03104125353999798,
0.147997076,0.043789610135879564,-0.018544269124400437,0.02674874379879455,
0.149997976,0.038862407102844276,-0.016750774796590928,0.0252297140331752,
0.151998842,0.03108992568227542,-0.01340061983727292,0.02592946824802489,
0.153999708,0.021041221551679715,-0.01455121486395905,0.026490034559357056,
0.156000608,0.01108689278966836,-0.013556331388237197,0.028853465635766185,
0.158000608,0.0012080702829889711,-0.01084506511058958,0.028828469530097323,
0.160000608,-0.00669499368281902,-0.008676052088471664,0.02689349461821955,
0.162000608,-0.02067888880421115,-0.0069408416707772425,0.02726125565551385,
0.164000574,-0.02995063944379006,-0.0036373138395515703,0.025639723518551705,
0.16600054,-0.0354526804583829,9.208679224994576E-4,0.02242675684218476,
0.168000506,-0.03793894185205787,7.366943379993884E-4,0.010279967485466557,
0.169999839,-0.03801260339085649,5.893554703995108E-4,5.62536000092706E-4,
0.171999805,-0.03807153262189539,4.714843763196086E-4,-0.00912638721555048,
0.173999771,-0.03811866408579756,3.771875010554204E-4,-0.01687828872751851,
0.175999737,-0.03432566218370764,3.0175000084442516E-4,-0.023079046997640518,
0.177999703,-0.03512196773524737,2.4140000067562895E-4,-0.028040416553190894,
0.179999703,-0.03575902409740808,-0.0017222394965297205,-0.02817803026403709,
0.181999736,-0.036268657266207704,5.375678998462696E-4,-0.024458165178026903,
0.183999769,-0.032845656728035744,0.002345413816946973,-0.019566532142421877,
0.185999802,-0.030107244376569198,0.001876331053557223,-0.011822506719797232,
0.187999835,-0.02600115499832567,-4.142946542247117E-4,-0.0037115454148999305,
0.189999468,-0.020800923998660542,-3.314357233796805E-4,0.006607179683705056,
0.191998601,-0.01472537970185811,-2.651485787037444E-4,0.012947181735246005,
0.193998634,-0.007949584767345863,-0.0021274783600331304,0.01993492434327493,
0.195998634,0.003217141592403827,-0.001701982688026682,0.025524355490244233,
0.1979986,0.012150522680203585,-0.0032769456474914804,0.02808092238047699,
0.199998566,0.019297227550443385,-0.00453691601506323,0.0301261758926632,
0.201998532,0.02692995094370554,-0.005544892309121252,0.029847400675068414,
0.203998498,0.03303611773738632,-0.004435913847297357,0.02962361756153875,
0.205998464,0.03792106309325988,-0.003548731077837708,0.03136033203751154,
0.20799843,0.0379983003838181,-0.0028389848622705216,0.03849616357922869,
0.20999753,0.036144718798265446,-0.002271187889816062,0.040373346879007954,
0.211996663,0.03657722494782256,-0.0018169503118530272,0.041875856458284844,
0.213995796,0.03500787037039793,-0.0033689197465527343,0.041162123154908414,
0.215995796,0.03375237478752929,-0.002695135797242454,0.038675395545411106,
0.217995796,0.03274798428169884,-0.0021561086377941407,0.03860175442460978,
0.219995796,0.03385983137410481,-0.0017248869102353126,0.03662786350062497,
0.221995796,0.03283394955095925,5.354499688818848E-4,0.02930229080049962,
0.223995796,0.032013244092442814,0.0023437194721758203,0.021526091673601755,
0.225995796,0.031356679725629666,0.0037903350748109688,0.013390154344740779,
0.227995796,0.025085343780503727,0.003032268059848686,0.004966426454307893,
0.229996462,0.014322190572727558,5.104549508088141E-4,-0.009434756785772436,
0.231996495,0.0037963085094363247,4.083639606471401E-4,-0.0247856594325242,
0.233996528,-0.008455122095801765,3.266911685178009E-4,-0.03898212251672284,
0.235996561,-0.01825626061952776,2.6135293481432953E-4,-0.04650857398994113,
0.237996594,-0.029927908314042614,0.002124441844921776,-0.048699016174374776,
0.239996627,-0.03734985505165525,0.001699553475937421,-0.05045136992192134,
0.241996627,-0.03754132202960547,0.005190361774890295,-0.04993827489261449,
0.243996627,-0.039609867029964885,0.007983008414052861,-0.04761205790237355,
0.245996593,-0.03934934353318212,0.00830176622831269,-0.04192036531603982,
0.247996559,-0.0410562842328262,0.010472131976790866,-0.03736701124697284,
0.249996059,-0.04050646537454222,0.012208424575573584,-0.03372432799171854,
0.251996059,-0.03815126271177366,0.011682099157529269,-0.02889444042071787,
0.253995159,-0.03626708866062989,0.011261038823093816,-0.02694627133071492,
0.255995125,-0.03475976134064379,0.010924190555545277,-0.025387736058712917,
0.257995125,-0.03355388756372596,0.010654711941506356,-0.02605664880790748,
0.259995125,-0.030673829045121392,0.010439129050275664,-0.026591016067810003,
0.261995158,-0.02645442273316742,0.010266662737290932,-0.027019272815186568,
0.263995191,-0.021163538186533937,0.010128689686903058,-0.023530396279493715,
0.265995224,-0.01310011155508653,0.006187592252452134,-0.018824317023595327,
0.267995257,-9.032798377887064E-4,0.004950073801961885,-0.013144475591532867,
0.269995757,0.010769533112190921,0.002044699544499373,-0.008599839506429063,
0.271996657,0.018192435896033254,-2.795998614706363E-4,-0.0011341745836581651,
0.273997557,0.02413075812310711,-0.0021390393862468216,0.004839120294011678,
0.275997557,0.032712134898906814,-0.0036265910060677697,0.011532734223489882,
0.277997557,0.0395772363195466,-0.004816632301924528,0.018802603394416195,
0.279997557,0.04506931745605841,-0.0057686653386097575,0.02461926167061179,
0.281997557,0.04371690387405694,-0.004614932270887717,0.027356847324771394,
0.283997557,0.04071960159045648,-0.0036919458167101737,0.029546915848097655,
0.285997557,0.038321771684505096,-0.00295355665336805,0.02746825167261946,
0.287997557,0.03831886129634979,-4.474858256240388E-4,0.016228141377158778,
0.289996657,0.03640117348875524,-3.579886604989646E-4,0.007236816080242292,
0.291995757,0.034867023242679596,-2.8639092839899405E-4,0.0019587338700528534,
0.293994857,0.031724343548748785,-0.002144472239789419,-0.004179472864896283,
0.295993957,0.02921019383313965,-0.0017155777918311799,-0.007174297286058007,
0.297993923,0.025283514563582035,-0.0013724622334647663,-0.011485134850330425,
0.299993889,0.020226811650865636,8.17389710298766E-4,-0.01493456784120184,
0.301993689,0.014266089823622194,0.0025692712653091476,-0.017693351294445492,
0.303993655,0.007582152864757136,0.002055417012247318,-0.01798540002969773,
0.305993655,0.004150356834270924,0.0035596931068679893,-0.016304060990554703,
0.307993688,-0.004341158481328988,0.004763113982564349,-0.018788945813927427,
0.309994588,-0.014965095688414032,0.00764121018019237,-0.024608335606220777,
0.311995488,-0.02154888595701175,0.009943687138294521,-0.03117882546739814,
0.313996388,-0.030646637166030555,0.011785668704776597,-0.03835019538368378,
0.315996421,-0.03600947863617529,0.01134389446089168,-0.04408805425616613,
0.317996454,-0.038384392315220756,0.01290583456285388,-0.05059331938149647,
0.319996487,-0.038368951840457854,0.014155386644423729,-0.05579753148176003,
0.321996487,-0.03835661138157648,0.013239668812609295,-0.05996090116197017,
0.323996453,-0.03451600809940181,0.012507094547157926,-0.06137585593934247,
0.325996419,-0.031443525473662054,0.011921035134796476,-0.06059284173389656,
0.327996385,-0.030900910791069547,0.011452187604907849,-0.06379714936367975,
0.329996551,-0.028551447626996268,0.009161750083926279,-0.06252987647336639,
0.331996517,-0.02667188901666659,0.007329400067140668,-0.057685339166974714,
0.333996483,-0.025168230207473885,0.005863520053712712,-0.049978990327719686,
0.335996483,-0.02204994366304941,0.006606175540040837,-0.03998319226217539,
0.337996483,-0.01955531442750985,0.009115659426173206,-0.030071575782397275,
0.339996516,-0.017559611039078188,0.009207887038008788,-0.02214151965912059,
0.341996549,-0.010216969837121948,0.007366309630406853,-0.015798237699952367,
0.343996582,-0.0024274973784866316,0.003977688207255081,-0.010722849193165018,
0.345996615,0.007634811503491212,0.003182150565804065,-0.004747560360391034,
0.347996648,0.015684658609073476,0.0044610799497135645,3.267070582779752E-5,
0.349997548,0.020209176796468997,0.005484223456841519,0.0019411145920056327,
0.351998448,0.02765951034052605,0.002472019268402903,0.0034686326404020917,
0.353999314,0.03170440575777239,6.225591765218752E-5,0.004689884139665423,
0.35600018,0.03302497451542813,-0.0037809142600186973,0.0075826263058740295,
0.35800018,0.034081429521552686,-0.004940090905085626,0.007981842011496099,
0.36000018,0.03109586261138278,-0.0020367132269978327,0.008300451636539918,
0.362000346,0.03253813999831642,-0.0016293705815981774,0.0085561022760281,
0.364000346,0.03177659048986409,-0.0013034964652782755,0.008759859848165519,
0.366000346,0.031167356843566696,8.72562324847781E-4,0.010838606872672685,
0.368000312,0.028764610429458465,0.0026134093569485373,0.006755907470793687,
0.369999378,0.024927047840637095,0.0040060869826290535,0.003488985009838075,
0.371999344,0.01802627877543936,0.0032048695861033316,0.002791188007870815,
0.37399931,0.012505657562816686,0.004479255165953155,3.1797237895325736E-4,
0.375999276,0.010004526050253357,0.007414123126903149,-0.0035763410909783744,
0.377999242,0.008003620840202688,0.009762017495662967,-0.008607532833719844,
0.379999208,0.0025721776780215228,0.007809613996530462,-0.01454746425525677,
0.381999174,-0.0056037018063285066,0.006247691197224459,-0.0173836684256905,
0.383999174,-0.012144411354273008,0.006913512454850057,-0.02156837272883294,
0.385999207,-0.01929233848969894,0.007446169460950447,-0.024916136171347247,
0.38799924,-0.023095308780040402,0.005956935568760535,-0.027594346925358337,
0.389999473,-0.026137696933242527,0.006680907952078652,-0.031652656495364084,
0.391999506,-0.028571607455804227,0.007260085858733056,-0.03298356318457252,
0.393999539,-0.030518723952924626,0.00772342818405658,-0.03404828853594033,
0.395999572,-0.032076429071549895,0.006178742547245264,-0.03298432785023664,
0.397999605,-0.029491862251380535,0.0049429940377963,-0.03021894421378235,
0.399999605,-0.027424208795245042,0.005869754727306997,-0.028005874365167216,
0.401999571,-0.025770097951265614,0.006611163278916088,-0.024319677519477167,
0.403999537,-0.02061607836101248,0.005288930623132959,-0.01945574201558209,
0.405999503,-0.014577503191739671,0.004231144498506367,-0.013649615585121566,
0.407999469,-0.011662002553391726,0.0033849155988052715,-0.005173232507159398,
0.409998569,-0.00932960204271338,0.002707932479044217,-3.078670115872484E-4,
0.411997669,-0.007463681634170688,0.002166345983235729,0.003584425384870471,
0.413996802,-0.0021402143922669703,-1.82282710481374E-4,0.008614000268833522,
0.415996802,2.0318798325674736E-4,-1.458261683850992E-4,0.010721919209206732,
0.417996835,0.0059086288778163465,-0.002032020431778303,0.01623897335564628,
0.419996868,0.010472993514392986,-0.0035409758424931326,0.020652616672798274,
0.421996901,0.01603983279979565,-0.00474814017106473,0.026098509353863264,
0.423996934,0.02049331614904673,-0.0057138716339220075,0.03045598643816838,
0.425996967,0.024056102828447612,-0.006486456804207563,0.03585694613295587,
0.427997,0.024990960753969033,-0.007104524940436452,0.042092691916129965,
0.429997933,0.023823487597315868,-0.005683619952349339,0.04516631051532549,
0.431997933,0.020974161495851962,-0.0064622554589499615,0.045710227367338874,
0.433997933,0.01677932919668157,-0.010915882858371084,0.0461445979094961,
0.435997933,0.015338822854415568,-0.010648065783767091,0.04457711631587813,
0.437997933,0.01610177727767309,-0.010433812124083897,0.0433231310409834,
0.439997933,0.01862751223427836,-0.012177768693407476,0.040404964793724574,
0.441997933,0.018732728781563318,-0.013572933948866606,0.039985409823261264,
0.443997933,0.016901542522320956,-0.012773706656163508,0.03773402488009303,
0.445997899,0.011605874520786458,-0.010218965324930718,0.034017938898214695,
0.447997865,0.00162324970741895,-0.0062598127628743505,0.029130092085368986,
0.449996965,-0.004447478725275761,-0.0030924907132288126,0.0233040736682959,
0.451996065,-0.009304073392360501,-0.0024739925705832277,0.018643258934636364,
0.453995165,-0.011273977708029015,-0.0019791940564664046,0.014914607147709091,
0.455995165,-0.014765260657634144,-0.001583355245172946,0.010015944751369688,
0.457995131,-0.01947365843531751,-0.003182043693208847,0.006097777773751645,
0.459995097,-0.021325017160393894,-0.00446099445163739,0.002962481252204441,
0.461995097,-0.020890732722455757,-0.005484155058379958,0.0023699850017635526,
0.46399513,-0.02054330517210523,-0.006302683543774279,0.0018959880014097763,
0.465995163,-0.02026536313182481,-0.006957506332089913,0.0034325313679239855,
0.467995196,-0.018127661923459104,-0.00748136456274251,0.0027460250943391884,
0.469996096,-0.018332848532907925,-0.007900451147264231,0.0021968200754720613,
0.471996996,-0.01849699782046696,-0.00823572041488152,0.0017574560603783596,
0.473997896,-0.018628329171443136,-0.006588576331905127,0.0014059648483026876,
0.475997929,-0.01490266333715451,-0.005270861065524102,0.0011247718786417948,
0.477997929,-0.01383749016679392,-0.006132048349489327,0.004730536497055127,
0.479997895,-0.011069992133435125,-0.0029902791825211494,0.007615148191785437,
0.481997861,-0.006940634209677776,-0.002392223346016742,0.00992283754756862,
0.483998327,-0.0017217764526726298,-0.0019137786768133047,0.015599708026336145,
0.485998293,0.0043686573290728226,-0.00344638243852069,0.02014120440935052,
0.487998259,0.014987094766609088,-0.0065878249449573545,0.03335081753138702,
0.489997359,0.021566485219567805,-0.007185619453036196,0.04200353000167212,
0.491996492,0.024914638084864438,-0.0076638550594991806,0.04509498098375886,
0.493995625,0.0256777889591025,-0.008046443544669657,0.04565316374208628,
0.495994758,0.026288309658492937,-0.008352514332806038,0.04418396898195098,
0.497994524,0.026776738138934247,-0.008597370963315143,0.04300861317384275,
0.499994557,0.02525210950528803,-0.01070861576479265,0.04398330655469884,
0.50199459,0.02403241851929999,-0.012397611605974745,0.044763824198836843,
0.503994623,0.0211412943125103,-0.011833448781850109,0.04538747537469412,
0.505994656,0.018828394947078553,-0.009466759025479998,0.04397141828803619,
0.507994689,0.018893434951803456,-0.009488766717454133,0.04283857261871127,
0.509995589,0.01703011341897756,-0.007591013373963396,0.041932296083249554,
0.511996455,0.015539450232252366,-0.007988170196240763,0.03929229682753643,
0.513997321,0.012431560185801882,-0.008305895654062923,0.03526455645616977,
0.515997287,0.009945248148641506,-0.008560076020320828,0.0320423641590768,
0.517997287,0.006040839021842895,-0.008763420313326886,0.029464610321401352,
